pos,scaled_pos,time,intensity
-24985.0,-0.0534679,-163926585.0,0.0307
-24902.0,-0.053290279999999995,-163382022.0,0.0306
-24822.0,-0.05311908,-162857142.0,0.0307
-24744.0,-0.05295216,-162345384.0,0.0306
-24676.0,-0.052806639999999995,-161899236.0,0.0306
-24582.0,-0.052605479999999996,-161282502.0,0.0309
-24503.0,-0.05243642,-160764183.0,0.0308
-24437.0,-0.05229518,-160331157.0,0.0308
-24346.0,-0.05210044,-159734106.0,0.0307
-24267.0,-0.05193138,-159215787.0,0.0308
-24194.0,-0.051775159999999994,-158736834.0,0.0308
-24104.0,-0.05158256,-158146344.0,0.0304
-24022.0,-0.051407079999999994,-157608342.0,0.0308
-23942.0,-0.05123588,-157083462.0,0.0307
-23869.0,-0.05107966,-156604509.0,0.0307
-23784.0,-0.05089775999999999,-156046824.0,0.0307
-23704.0,-0.05072656,-155521944.0,0.0308
-23625.0,-0.0505575,-155003625.0,0.0307
-23550.0,-0.050397,-154511550.0,0.0306
-23476.0,-0.050238639999999994,-154026036.0,0.0304
-23385.0,-0.050043899999999995,-153428985.0,0.0304
-23306.0,-0.04987484,-152910666.0,0.0306
-23236.0,-0.04972504,-152451396.0,0.0306
-23144.0,-0.049528159999999995,-151847784.0,0.0307
-23059.0,-0.049346259999999996,-151290099.0,0.0303
-22982.0,-0.04918148,-150784902.0,0.0304
-22906.0,-0.049018839999999994,-150286266.0,0.0303
-22827.0,-0.048849779999999995,-149767947.0,0.0303
-22758.0,-0.048702119999999995,-149315238.0,0.0303
-22666.0,-0.04850524,-148711626.0,0.0307
-22583.0,-0.048327619999999995,-148167063.0,0.0309
-22502.0,-0.048154279999999994,-147635622.0,0.0309
-22431.0,-0.04800234,-147169791.0,0.0309
-22344.0,-0.047816159999999996,-146598984.0,0.0308
-22262.0,-0.04764068,-146060982.0,0.0308
-22182.0,-0.047469479999999994,-145536102.0,0.0308
-22102.0,-0.04729828,-145011222.0,0.0308
-22028.0,-0.047139919999999995,-144525708.0,0.0309
-21939.0,-0.04694946,-143941779.0,0.0309
-21859.0,-0.046778259999999995,-143416899.0,0.0308
-21782.0,-0.04661348,-142911702.0,0.0308
-21708.0,-0.046455119999999996,-142426188.0,0.0308
-21633.0,-0.046294619999999995,-141934113.0,0.0308
-21541.0,-0.04609774,-141330501.0,0.0305
-21459.0,-0.04592226,-140792499.0,0.0305
-21382.0,-0.045757479999999996,-140287302.0,0.0304
-21313.0,-0.045609819999999995,-139834593.0,0.0304
-21225.0,-0.0454215,-139257225.0,0.0307
-21151.0,-0.04526313999999999,-138771711.0,0.0307
-21064.0,-0.04507696,-138200904.0,0.0307
-20986.0,-0.04491004,-137689146.0,0.0308
-20905.0,-0.0447367,-137157705.0,0.0308
-20825.0,-0.044565499999999994,-136632825.0,0.0308
-20746.0,-0.044396439999999995,-136114506.0,0.0308
-20668.0,-0.044229519999999994,-135602748.0,0.0307
-20582.0,-0.04404548,-135038502.0,0.0306
-20501.0,-0.04387214,-134507061.0,0.0305
-20431.0,-0.04372234,-134047791.0,0.0307
-20342.0,-0.043531879999999995,-133463862.0,0.0308
-20267.0,-0.043371379999999994,-132971787.0,0.0304
-20189.0,-0.04320446,-132460029.0,0.0304
-20103.0,-0.04302042,-131895783.0,0.0305
-20029.0,-0.042862059999999993,-131410269.0,0.0306
-19949.0,-0.04269086,-130885389.0,0.0305
-19862.0,-0.042504679999999996,-130314582.0,0.031
-19787.0,-0.042344179999999995,-129822507.0,0.0307
-19710.0,-0.0421794,-129317310.0,0.0307
-19622.0,-0.04199108,-128739942.0,0.0305
-19541.0,-0.04181774,-128208501.0,0.0305
-19465.0,-0.041655099999999994,-127709865.0,0.0303
-19383.0,-0.041479619999999995,-127171863.0,0.0303
-19310.0,-0.041323399999999996,-126692910.0,0.0303
-19223.0,-0.041137219999999995,-126122103.0,0.0302
-19155.0,-0.0409917,-125675955.0,0.0308
-19079.0,-0.04082906,-125177319.0,0.0309
-18982.0,-0.040621479999999995,-124540902.0,0.0308
-18900.0,-0.040445999999999996,-124002900.0,0.0305
-18835.0,-0.0403069,-123576435.0,0.0305
-18745.0,-0.0401143,-122985945.0,0.0307
-18679.0,-0.03997306,-122552919.0,0.0308
-18586.0,-0.03977404,-121942746.0,0.0308
-18510.0,-0.0396114,-121444110.0,0.0307
-18426.0,-0.03943164,-120892986.0,0.031
-18348.0,-0.039264719999999996,-120381228.0,0.031
-18263.0,-0.03908282,-119823543.0,0.0307
-18182.0,-0.038909479999999996,-119292102.0,0.0306
-18108.0,-0.03875112,-118806588.0,0.0305
-18029.0,-0.038582059999999994,-118288269.0,0.0304
-17942.0,-0.03839588,-117717462.0,0.0309
-17862.0,-0.03822468,-117192582.0,0.0309
-17780.0,-0.0380492,-116654580.0,0.0309
-17702.0,-0.03788228,-116142822.0,0.0308
-17626.0,-0.03771964,-115644186.0,0.0309
-17545.0,-0.0375463,-115112745.0,0.031
-17471.0,-0.037387939999999995,-114627231.0,0.0307
-17387.0,-0.03720818,-114076107.0,0.0307
-17312.0,-0.03704768,-113584032.0,0.0306
-17222.0,-0.03685508,-112993542.0,0.0307
-17142.0,-0.036683879999999995,-112468662.0,0.0308
-17069.0,-0.036527659999999997,-111989709.0,0.0308
-16987.0,-0.03635218,-111451707.0,0.0307
-16902.0,-0.03617028,-110894022.0,0.031
-16821.0,-0.03599694,-110362581.0,0.031
-16742.0,-0.03582788,-109844262.0,0.0308
-16666.0,-0.035665239999999994,-109345626.0,0.031
-16589.0,-0.03550046,-108840429.0,0.031
-16499.0,-0.035307859999999996,-108249939.0,0.0308
-16427.0,-0.035153779999999996,-107777547.0,0.0309
-16342.0,-0.03497188,-107219862.0,0.0309
-16264.0,-0.034804959999999996,-106708104.0,0.0309
-16182.0,-0.03462948,-106170102.0,0.031
-16113.0,-0.034481819999999996,-105717393.0,0.031
-16027.0,-0.03429778,-105153147.0,0.0312
-15946.0,-0.03412444,-104621706.0,0.0309
-15877.0,-0.03397678,-104168997.0,0.0309
-15784.0,-0.03377776,-103558824.0,0.031
-15704.0,-0.03360656,-103033944.0,0.0314
-15636.0,-0.03346104,-102587796.0,0.0315
-15542.0,-0.03325988,-101971062.0,0.0313
-15463.0,-0.03309082,-101452743.0,0.0314
-15387.0,-0.032928179999999994,-100954107.0,0.0315
-15316.0,-0.03277624,-100488276.0,0.0315
-15226.0,-0.03258364,-99897786.0,0.0315
-15141.0,-0.03240174,-99340101.0,0.0317
-15066.0,-0.03224124,-98848026.0,0.0319
-14984.0,-0.03206576,-98310024.0,0.0319
-14900.0,-0.031886,-97758900.0,0.0321
-14824.0,-0.03172336,-97260264.0,0.0322
-14743.0,-0.03155002,-96728823.0,0.0322
-14672.0,-0.031398079999999995,-96262992.0,0.0325
-14584.0,-0.031209759999999996,-95685624.0,0.0325
-14499.0,-0.031027859999999997,-95127939.0,0.0325
-14423.0,-0.03086522,-94629303.0,0.0325
-14354.0,-0.030717559999999998,-94176594.0,0.0323
-14262.0,-0.030520679999999998,-93572982.0,0.0328
-14181.0,-0.030347339999999997,-93041541.0,0.0326
-14104.0,-0.030182559999999997,-92536344.0,0.0326
-14022.0,-0.03000708,-91998342.0,0.0326
-13942.0,-0.02983588,-91473462.0,0.0326
-13876.0,-0.029694639999999998,-91040436.0,0.0327
-13779.0,-0.02948706,-90404019.0,0.0329
-13706.0,-0.029330839999999997,-89925066.0,0.0326
-13624.0,-0.029155359999999998,-89387064.0,0.0325
-13546.0,-0.028988439999999997,-88875306.0,0.0324
-13471.0,-0.028827939999999996,-88383231.0,0.0325
-13386.0,-0.028646039999999998,-87825546.0,0.0334
-13302.0,-0.028466279999999997,-87274422.0,0.0333
-13225.0,-0.028301499999999997,-86769225.0,0.0334
-13149.0,-0.028138859999999998,-86270589.0,0.0334
-13062.0,-0.027952679999999997,-85699782.0,0.0339
-12982.0,-0.027781479999999997,-85174902.0,0.0341
-12908.0,-0.027623119999999998,-84689388.0,0.0344
-12822.0,-0.027439079999999998,-84125142.0,0.0347
-12744.0,-0.027272159999999997,-83613384.0,0.0348
-12662.0,-0.027096679999999998,-83075382.0,0.0349
-12579.0,-0.026919059999999998,-82530819.0,0.0348
-12504.0,-0.026758559999999997,-82038744.0,0.0348
-12426.0,-0.02659164,-81526986.0,0.0348
-12359.0,-0.026448259999999998,-81087399.0,0.0348
-12266.0,-0.026249239999999997,-80477226.0,0.0355
-12192.0,-0.026090879999999997,-79991712.0,0.036
-12101.0,-0.025896139999999998,-79394661.0,0.0362
-12031.0,-0.02574634,-78935391.0,0.037
-11946.0,-0.025564439999999997,-78377706.0,0.0374
-11866.0,-0.025393239999999997,-77852826.0,0.0375
-11779.0,-0.025207059999999996,-77282019.0,0.0379
-11707.0,-0.02505298,-76809627.0,0.0387
-11636.0,-0.02490104,-76343796.0,0.0392
-11546.0,-0.024708439999999998,-75753306.0,0.0394
-11467.0,-0.02453938,-75234987.0,0.0402
-11386.0,-0.02436604,-74703546.0,0.0407
-11304.0,-0.02419056,-74165544.0,0.0412
-11224.0,-0.024019359999999997,-73640664.0,0.0413
-11143.0,-0.02384602,-73109223.0,0.0414
-11061.0,-0.023670539999999997,-72571221.0,0.042
-10986.0,-0.02351004,-72079146.0,0.042
-10910.0,-0.023347399999999997,-71580510.0,0.0421
-10819.0,-0.02315266,-70983459.0,0.0423
-10743.0,-0.02299002,-70484823.0,0.043
-10664.0,-0.022820959999999998,-69966504.0,0.0431
-10583.0,-0.022647619999999997,-69435063.0,0.0439
-10511.0,-0.02249354,-68962671.0,0.0442
-10422.0,-0.02230308,-68378742.0,0.0458
-10344.0,-0.02213616,-67866984.0,0.0468
-10263.0,-0.021962819999999997,-67335543.0,0.0473
-10190.0,-0.0218066,-66856590.0,0.0492
-10102.0,-0.021618279999999997,-66279222.0,0.0501
-10026.0,-0.021455639999999998,-65780586.0,0.0514
-9942.0,-0.021275879999999997,-65229462.0,0.0521
-9865.0,-0.021111099999999997,-64724265.0,0.0535
-9792.0,-0.02095488,-64245312.0,0.0543
-9702.0,-0.020762279999999998,-63654822.0,0.055
-9622.0,-0.020591079999999998,-63129942.0,0.0565
-9550.0,-0.020436999999999997,-62657550.0,0.0574
-9462.0,-0.020248679999999998,-62080182.0,0.0588
-9385.0,-0.0200839,-61574985.0,0.0609
-9300.0,-0.019902,-61017300.0,0.0617
-9223.0,-0.01973722,-60512103.0,0.0624
-9142.0,-0.01956388,-59980662.0,0.0628
-9063.0,-0.01939482,-59462343.0,0.0632
-8990.0,-0.019238599999999998,-58983390.0,0.0639
-8902.0,-0.01905028,-58406022.0,0.0655
-8822.0,-0.01887908,-57881142.0,0.069
-8744.0,-0.01871216,-57369384.0,0.0704
-8663.0,-0.018538819999999998,-56837943.0,0.0715
-8587.0,-0.01837618,-56339307.0,0.0725
-8512.0,-0.018215679999999998,-55847232.0,0.0726
-8422.0,-0.01802308,-55256742.0,0.0751
-8352.0,-0.01787328,-54797472.0,0.0784
-8261.0,-0.01767854,-54200421.0,0.0797
-8185.0,-0.017515899999999997,-53701785.0,0.0808
-8105.0,-0.017344699999999998,-53176905.0,0.0814
-8032.0,-0.01718848,-52697952.0,0.0817
-7944.0,-0.01700016,-52120584.0,0.0848
-7862.0,-0.016824679999999998,-51582582.0,0.0897
-7785.0,-0.0166599,-51077385.0,0.0912
-7710.0,-0.016499399999999997,-50585310.0,0.0929
-7619.0,-0.01630466,-49988259.0,0.0944
-7546.0,-0.01614844,-49509306.0,0.0984
-7474.0,-0.01599436,-49036914.0,0.1
-7387.0,-0.015808179999999998,-48466107.0,0.102
-7314.0,-0.01565196,-47987154.0,0.105
-7229.0,-0.015470059999999999,-47429469.0,0.107
-7149.0,-0.01529886,-46904589.0,0.109
-7068.0,-0.015125519999999998,-46373148.0,0.111
-6995.0,-0.0149693,-45894195.0,0.114
-6918.0,-0.014804519999999998,-45388998.0,0.115
-6829.0,-0.014614059999999998,-44805069.0,0.117
-6749.0,-0.014442859999999998,-44280189.0,0.123
-6669.0,-0.014271659999999999,-43755309.0,0.125
-6589.0,-0.014100459999999999,-43230429.0,0.127
-6510.0,-0.013931399999999998,-42712110.0,0.131
-6436.0,-0.013773039999999999,-42226596.0,0.132
-6350.0,-0.013588999999999999,-41662350.0,0.135
-6270.0,-0.013417799999999999,-41137470.0,0.138
-6192.0,-0.01325088,-40625712.0,0.139
-6106.0,-0.01306684,-40061466.0,0.142
-6022.0,-0.012887079999999999,-39510342.0,0.144
-5951.0,-0.012735139999999999,-39044511.0,0.149
-5866.0,-0.012553239999999998,-38486826.0,0.15
-5782.0,-0.01237348,-37935702.0,0.153
-5713.0,-0.012225819999999998,-37482993.0,0.154
-5622.0,-0.01203108,-36885942.0,0.157
-5547.0,-0.011870579999999999,-36393867.0,0.16
-5471.0,-0.011707939999999998,-35895231.0,0.16
-5382.0,-0.011517479999999998,-35311302.0,0.164
-5300.0,-0.011342,-34773300.0,0.169
-5221.0,-0.01117294,-34254981.0,0.171
-5139.0,-0.010997459999999999,-33716979.0,0.172
-5064.0,-0.01083696,-33224904.0,0.173
-4995.0,-0.010689299999999999,-32772195.0,0.174
-4903.0,-0.010492419999999999,-32168583.0,0.179
-4832.0,-0.010340479999999999,-31702752.0,0.183
-4742.0,-0.01014788,-31112262.0,0.187
-4668.0,-0.00998952,-30626748.0,0.189
-4584.0,-0.009809759999999999,-30075624.0,0.193
-4504.0,-0.00963856,-29550744.0,0.196
-4426.0,-0.00947164,-29038986.0,0.197
-4346.0,-0.00930044,-28514106.0,0.199
-4269.0,-0.009135659999999999,-28008909.0,0.2
-4183.0,-0.008951619999999999,-27444663.0,0.206
-4102.0,-0.00877828,-26913222.0,0.214
-4022.0,-0.00860708,-26388342.0,0.217
-3942.0,-0.00843588,-25863462.0,0.22
-3865.0,-0.0082711,-25358265.0,0.222
-3788.0,-0.00810632,-24853068.0,0.223
-3703.0,-0.00792442,-24295383.0,0.232
-3623.0,-0.007753219999999999,-23770503.0,0.235
-3542.0,-0.00757988,-23239062.0,0.237
-3463.0,-0.007410819999999999,-22720743.0,0.239
-3386.0,-0.00724604,-22215546.0,0.24
-3309.0,-0.00708126,-21710349.0,0.242
-3222.0,-0.00689508,-21139542.0,0.246
-3143.0,-0.006726019999999999,-20621223.0,0.25
-3065.0,-0.006559099999999999,-20109465.0,0.252
-2989.0,-0.00639646,-19610829.0,0.254
-2901.0,-0.006208139999999999,-19033461.0,0.261
-2832.0,-0.006060479999999999,-18580752.0,0.264
-2742.0,-0.00586788,-17990262.0,0.268
-2662.0,-0.00569668,-17465382.0,0.273
-2582.0,-0.005525479999999999,-16940502.0,0.277
-2504.0,-0.005358559999999999,-16428744.0,0.28
-2423.0,-0.00518522,-15897303.0,0.281
-2342.0,-0.00501188,-15365862.0,0.282
-2263.0,-0.004842819999999999,-14847543.0,0.282
-2182.0,-0.004669479999999999,-14316102.0,0.283
-2103.0,-0.00450042,-13797783.0,0.284
-2022.0,-0.00432708,-13266342.0,0.284
-1942.0,-0.00415588,-12741462.0,0.284
-1864.0,-0.00398896,-12229704.0,0.284
-1786.0,-0.0038220399999999996,-11717946.0,0.284
-1706.0,-0.00365084,-11193066.0,0.284
-1627.0,-0.00348178,-10674747.0,0.284
-1541.0,-0.00329774,-10110501.0,0.29
-1461.0,-0.0031265399999999997,-9585621.0,0.295
-1383.0,-0.0029596199999999996,-9073863.0,0.3
-1302.0,-0.00278628,-8542422.0,0.302
-1223.0,-0.00261722,-8024103.0,0.305
-1141.0,-0.00244174,-7486101.0,0.306
-1064.0,-0.0022769599999999997,-6980904.0,0.308
-985.0,-0.0021079,-6462585.0,0.31
-904.0,-0.0019345599999999999,-5931144.0,0.31
-826.0,-0.0017676399999999998,-5419386.0,0.31
-746.0,-0.00159644,-4894506.0,0.31
-669.0,-0.00143166,-4389309.0,0.312
-582.0,-0.00124548,-3818502.0,0.314
-503.0,-0.00107642,-3300183.0,0.319
-422.0,-0.0009030799999999999,-2768742.0,0.322
-342.0,-0.00073188,-2243862.0,0.323
-262.0,-0.0005606799999999999,-1718982.0,0.325
-182.0,-0.00038948,-1194102.0,0.326
-101.0,-0.00021613999999999997,-662661.0,0.327
-23.0,-4.921999999999999e-05,-150903.0,0.327
55.0,0.00011769999999999999,360855.0,0.327
132.0,0.00028248,866052.0,0.328
219.0,0.00046866,1436859.0,0.329
297.0,0.00063558,1948617.0,0.329
377.0,0.0008067799999999999,2473497.0,0.329
454.0,0.0009715599999999999,2978694.0,0.328
532.0,0.0011384799999999999,3490452.0,0.328
618.0,0.00132252,4054698.0,0.327
698.0,0.0014937199999999998,4579578.0,0.324
778.0,0.0016649199999999999,5104458.0,0.323
858.0,0.00183612,5629338.0,0.323
938.0,0.00200732,6154218.0,0.323
1017.0,0.00217638,6672537.0,0.322
1098.0,0.00234972,7203978.0,0.322
1177.0,0.00251878,7722297.0,0.322
1256.0,0.00268784,8240616.0,0.322
1333.0,0.0028526199999999997,8745813.0,0.322
1412.0,0.0030216799999999997,9264132.0,0.322
1498.0,0.0032057199999999996,9828378.0,0.318
1574.0,0.00336836,10327014.0,0.31
1656.0,0.00354384,10865016.0,0.308
1735.0,0.0037129,11383335.0,0.306
1814.0,0.00388196,11901654.0,0.305
1895.0,0.0040552999999999995,12433095.0,0.303
1977.0,0.00423078,12971097.0,0.299
2057.0,0.00440198,13495977.0,0.294
2137.0,0.00457318,14020857.0,0.292
2221.0,0.00475294,14571981.0,0.29
2291.0,0.00490274,15031251.0,0.289
2377.0,0.00508678,15595497.0,0.284
2459.0,0.0052622599999999995,16133499.0,0.277
2537.0,0.00542918,16645257.0,0.273
2617.0,0.005600379999999999,17170137.0,0.27
2695.0,0.0057672999999999995,17681895.0,0.268
2770.0,0.0059277999999999996,18173970.0,0.266
2856.0,0.0061118399999999995,18738216.0,0.258
2923.0,0.00625522,19177803.0,0.255
3015.0,0.0064521,19781415.0,0.251
3089.0,0.006610459999999999,20266929.0,0.244
3170.0,0.0067837999999999996,20798370.0,0.242
3257.0,0.00696998,21369177.0,0.238
3338.0,0.00714332,21900618.0,0.231
3418.0,0.00731452,22425498.0,0.227
3499.0,0.00748786,22956939.0,0.225
3579.0,0.00765906,23481819.0,0.222
3656.0,0.007823839999999999,23987016.0,0.221
3734.0,0.00799076,24498774.0,0.22
3821.0,0.008176939999999999,25069581.0,0.213
3897.0,0.00833958,25568217.0,0.209
3960.0,0.0084744,25981560.0,0.205
4061.0,0.00869054,26644221.0,0.199
4138.0,0.00885532,27149418.0,0.191
4218.0,0.00902652,27674298.0,0.188
4297.0,0.00919558,28192617.0,0.185
4377.0,0.00936678,28717497.0,0.184
4453.0,0.009529419999999999,29216133.0,0.182
4535.0,0.009704899999999999,29754135.0,0.181
4615.0,0.009876099999999999,30279015.0,0.174
4690.0,0.0100366,30771090.0,0.165
4778.0,0.010224919999999998,31348458.0,0.16
4860.0,0.010400399999999999,31886460.0,0.157
4937.0,0.010565179999999999,32391657.0,0.155
5009.0,0.01071926,32864049.0,0.154
5099.0,0.010911859999999999,33454539.0,0.148
5173.0,0.011070219999999999,33940053.0,0.144
5256.0,0.011247839999999999,34484616.0,0.14
5328.0,0.01140192,34957008.0,0.133
5415.0,0.011588099999999999,35527815.0,0.13
5495.0,0.011759299999999999,36052695.0,0.128
5577.0,0.011934779999999999,36590697.0,0.127
5655.0,0.0121017,37102455.0,0.126
5729.0,0.01226006,37587969.0,0.124
5817.0,0.012448379999999998,38165337.0,0.12
5900.0,0.012625999999999998,38709900.0,0.117
5975.0,0.0127865,39201975.0,0.114
6056.0,0.012959839999999999,39733416.0,0.112
6128.0,0.01311392,40205808.0,0.11
6217.0,0.01330438,40789737.0,0.107
6291.0,0.013462739999999999,41275251.0,0.104
6378.0,0.013648919999999998,41846058.0,0.1
6449.0,0.013800859999999998,42311889.0,0.0953
6529.0,0.01397206,42836769.0,0.0938
6619.0,0.014164659999999999,43427259.0,0.0912
6693.0,0.014323019999999999,43912773.0,0.0885
6776.0,0.014500639999999999,44457336.0,0.0872
6849.0,0.014656859999999999,44936289.0,0.0864
6938.0,0.014847319999999999,45520218.0,0.0847
7018.0,0.015018519999999999,46045098.0,0.0814
7098.0,0.015189719999999999,46569978.0,0.0802
7168.0,0.015339519999999999,47029248.0,0.0791
7260.0,0.015536399999999999,47632860.0,0.0775
7339.0,0.015705459999999997,48151179.0,0.0749
7416.0,0.015870239999999997,48656376.0,0.0738
7500.0,0.01605,49207500.0,0.073
7572.0,0.01620408,49679892.0,0.0727
7659.0,0.01639026,50250699.0,0.0707
7737.0,0.016557179999999998,50762457.0,0.0675
7818.0,0.01673052,51293898.0,0.0665
7897.0,0.016899579999999997,51812217.0,0.0657
7972.0,0.01706008,52304292.0,0.0652
8058.0,0.017244119999999998,52868538.0,0.0635
8138.0,0.017415319999999998,53393418.0,0.0625
8218.0,0.017586519999999998,53918298.0,0.0612
8298.0,0.017757719999999998,54443178.0,0.0606
8378.0,0.017928919999999997,54968058.0,0.0604
8456.0,0.01809584,55479816.0,0.0598
8534.0,0.01826276,55991574.0,0.059
8614.0,0.01843396,56516454.0,0.0586
8691.0,0.01859874,57021651.0,0.0586
8778.0,0.01878492,57592458.0,0.0575
8858.0,0.01895612,58117338.0,0.0549
8939.0,0.019129459999999997,58648779.0,0.0535
9019.0,0.019300659999999997,59173659.0,0.0529
9098.0,0.01946972,59691978.0,0.0525
9178.0,0.01964092,60216858.0,0.0521
9259.0,0.01981426,60748299.0,0.0513
9338.0,0.01998332,61266618.0,0.0507
9417.0,0.020152379999999998,61784937.0,0.0507
9496.0,0.02032144,62303256.0,0.0507
9575.0,0.0204905,62821575.0,0.0507
9653.0,0.02065742,63333333.0,0.0507
9739.0,0.02084146,63897579.0,0.0502
9818.0,0.021010519999999998,64415898.0,0.0474
9898.0,0.021181719999999998,64940778.0,0.0466
9979.0,0.02135506,65472219.0,0.0459
10061.0,0.021530539999999997,66010221.0,0.0455
10137.0,0.02169318,66508857.0,0.0452
10216.0,0.021862239999999998,67027176.0,0.0444
10295.0,0.022031299999999997,67545495.0,0.0441
10373.0,0.022198219999999998,68057253.0,0.0441
10457.0,0.02237798,68608377.0,0.044
10537.0,0.02254918,69133257.0,0.043
10617.0,0.02272038,69658137.0,0.0426
10698.0,0.02289372,70189578.0,0.0418
10771.0,0.023049939999999998,70668531.0,0.0418
10857.0,0.023233979999999998,71232777.0,0.041
10938.0,0.02340732,71764218.0,0.04
11018.0,0.02357852,72289098.0,0.0392
11098.0,0.02374972,72813978.0,0.039
11178.0,0.02392092,73338858.0,0.0388
11257.0,0.024089979999999997,73857177.0,0.0385
11337.0,0.024261179999999997,74382057.0,0.0385
11414.0,0.024425959999999997,74887254.0,0.0385
11491.0,0.02459074,75392451.0,0.0385
11578.0,0.024776919999999997,75963258.0,0.0382
11658.0,0.024948119999999997,76488138.0,0.0378
11737.0,0.02511718,77006457.0,0.0377
11815.0,0.025284099999999997,77518215.0,0.0369
11891.0,0.02544674,78016851.0,0.0367
11978.0,0.025632919999999997,78587658.0,0.0366
12057.0,0.02580198,79105977.0,0.0363
12138.0,0.02597532,79637418.0,0.0363
12218.0,0.02614652,80162298.0,0.0356
