pos,scaled_pos,time,intensity
-14997.0,-0.03209358,-98395317.0,0.0344
-14909.0,-0.03190526,-97817949.0,0.0333
-14829.0,-0.031734059999999994,-97293069.0,0.0319
-14760.0,-0.0315864,-96840360.0,0.0316
-14669.0,-0.031391659999999995,-96243309.0,0.0314
-14589.0,-0.03122046,-95718429.0,0.0314
-14509.0,-0.03104926,-95193549.0,0.0313
-14434.0,-0.030888759999999998,-94701474.0,0.0313
-14350.0,-0.030708999999999997,-94150350.0,0.0314
-14277.0,-0.030552779999999998,-93671397.0,0.0313
-14191.0,-0.030368739999999998,-93107151.0,0.0312
-14108.0,-0.03019112,-92562588.0,0.0312
-14029.0,-0.030022059999999996,-92044269.0,0.0314
-13949.0,-0.029850859999999996,-91519389.0,0.0317
-13868.0,-0.02967752,-90987948.0,0.0318
-13795.0,-0.029521299999999997,-90508995.0,0.0318
-13713.0,-0.029345819999999998,-89970993.0,0.032
-13629.0,-0.029166059999999997,-89419869.0,0.0321
-13549.0,-0.028994859999999997,-88894989.0,0.0326
-13479.0,-0.02884506,-88435719.0,0.0326
-13389.0,-0.028652459999999998,-87845229.0,0.0323
-13309.0,-0.028481259999999998,-87320349.0,0.0326
-13227.0,-0.02830578,-86782347.0,0.0325
-13137.0,-0.028113179999999998,-86191857.0,0.0324
-13070.0,-0.0279698,-85752270.0,0.0324
-12989.0,-0.02779646,-85220829.0,0.0325
-12909.0,-0.02762526,-84695949.0,0.0326
-12829.0,-0.02745406,-84171069.0,0.032
-12754.0,-0.027293559999999998,-83678994.0,0.0326
-12670.0,-0.027113799999999997,-83127870.0,0.0327
-12594.0,-0.02695116,-82629234.0,0.0329
-12508.0,-0.02676712,-82064988.0,0.0333
-12434.0,-0.02660876,-81579474.0,0.0332
-12352.0,-0.026433279999999997,-81041472.0,0.0336
-12272.0,-0.026262079999999997,-80516592.0,0.0339
-12191.0,-0.02608874,-79985151.0,0.0339
-12109.0,-0.025913259999999997,-79447149.0,0.0343
-12028.0,-0.02573992,-78915708.0,0.0341
-11949.0,-0.025570859999999997,-78397389.0,0.0343
-11869.0,-0.025399659999999998,-77872509.0,0.0346
-11789.0,-0.025228459999999998,-77347629.0,0.0347
-11709.0,-0.025057259999999998,-76822749.0,0.0352
-11637.0,-0.024903179999999997,-76350357.0,0.035
-11557.0,-0.024731979999999997,-75825477.0,0.0351
-11469.0,-0.02454366,-75248109.0,0.0355
-11398.0,-0.02439172,-74782278.0,0.0357
-11309.0,-0.02420126,-74198349.0,0.0361
-11229.0,-0.02403006,-73673469.0,0.0365
-11149.0,-0.02385886,-73148589.0,0.0366
-11077.0,-0.023704779999999998,-72676197.0,0.0371
-10989.0,-0.02351646,-72098829.0,0.0375
-10915.0,-0.0233581,-71613315.0,0.0378
-10829.0,-0.02317406,-71049069.0,0.0379
-10756.0,-0.023017839999999998,-70570116.0,0.0384
-10669.0,-0.022831659999999997,-69999309.0,0.0385
-10589.0,-0.022660459999999997,-69474429.0,0.0392
-10509.0,-0.022489259999999997,-68949549.0,0.0394
-10436.0,-0.02233304,-68470596.0,0.0399
-10356.0,-0.02216184,-67945716.0,0.0401
-10269.0,-0.021975659999999998,-67374909.0,0.0408
-10189.0,-0.021804459999999998,-66850029.0,0.0416
-10115.0,-0.021646099999999998,-66364515.0,0.042
-10029.0,-0.021462059999999998,-65800269.0,0.043
-9956.0,-0.02130584,-65321316.0,0.0431
-9869.0,-0.02111966,-64750509.0,0.0437
-9789.0,-0.02094846,-64225629.0,0.0444
-9718.0,-0.02079652,-63759798.0,0.0446
-9634.0,-0.020616759999999998,-63208674.0,0.0451
-9549.0,-0.02043486,-62650989.0,0.0455
-9468.0,-0.020261519999999998,-62119548.0,0.0471
-9389.0,-0.02009246,-61601229.0,0.0474
-9318.0,-0.01994052,-61135398.0,0.0483
-9229.0,-0.01975006,-60551469.0,0.0489
-9156.0,-0.019593839999999998,-60072516.0,0.0499
-9077.0,-0.01942478,-59554197.0,0.0507
-8989.0,-0.019236459999999997,-58976829.0,0.0511
-8914.0,-0.01907596,-58484754.0,0.0519
-8834.0,-0.01890476,-57959874.0,0.0528
-8747.0,-0.01871858,-57389067.0,0.0535
-8669.0,-0.018551659999999998,-56877309.0,0.0547
-8597.0,-0.01839758,-56404917.0,0.0562
-8508.0,-0.01820712,-55820988.0,0.0575
-8429.0,-0.018038059999999998,-55302669.0,0.0585
-8349.0,-0.01786686,-54777789.0,0.0608
-8270.0,-0.0176978,-54259470.0,0.0617
-8189.0,-0.01752446,-53728029.0,0.0624
-8119.0,-0.01737466,-53268759.0,0.0635
-8028.0,-0.017179919999999998,-52671708.0,0.0648
-7956.0,-0.01702584,-52199316.0,0.0663
-7875.0,-0.0168525,-51667875.0,0.0673
-7789.0,-0.01666846,-51103629.0,0.0681
-7709.0,-0.01649726,-50578749.0,0.0694
-7628.0,-0.01632392,-50047308.0,0.0715
-7551.0,-0.01615914,-49542111.0,0.0725
-7469.0,-0.01598366,-49004109.0,0.0736
-7389.0,-0.01581246,-48479229.0,0.0767
-7309.0,-0.015641259999999997,-47954349.0,0.0771
-7229.0,-0.015470059999999999,-47429469.0,0.0783
-7157.0,-0.015315979999999998,-46957077.0,0.0795
-7069.0,-0.01512766,-46379709.0,0.0812
-6989.0,-0.01495646,-45854829.0,0.0832
-6918.0,-0.014804519999999998,-45388998.0,0.0849
-6834.0,-0.014624759999999999,-44837874.0,0.0863
-6757.0,-0.014459979999999999,-44332677.0,0.0896
-6673.0,-0.01428022,-43781553.0,0.0915
-6589.0,-0.014100459999999999,-43230429.0,0.0931
-6515.0,-0.013942099999999999,-42744915.0,0.096
-6434.0,-0.01376876,-42213474.0,0.0974
-6352.0,-0.01359328,-41675472.0,0.099
-6269.0,-0.01341566,-41130909.0,0.103
-6192.0,-0.01325088,-40625712.0,0.104
-6109.0,-0.01307326,-40081149.0,0.106
-6029.0,-0.012902059999999998,-39556269.0,0.11
-5954.0,-0.012741559999999999,-39064194.0,0.112
-5865.0,-0.012551099999999999,-38480265.0,0.113
-5789.0,-0.012388459999999999,-37981629.0,0.117
-5710.0,-0.012219399999999998,-37463310.0,0.119
-5630.0,-0.012048199999999998,-36938430.0,0.121
-5549.0,-0.01187486,-36406989.0,0.123
-5472.0,-0.01171008,-35901792.0,0.125
-5387.0,-0.011528179999999999,-35344107.0,0.126
-5316.0,-0.01137624,-34878276.0,0.129
-5228.0,-0.011187919999999999,-34300908.0,0.13
-5159.0,-0.01104026,-33848199.0,0.133
-5068.0,-0.010845519999999999,-33251148.0,0.135
-4989.0,-0.010676459999999999,-32732829.0,0.139
-4915.0,-0.010518099999999999,-32247315.0,0.141
-4833.0,-0.010342619999999999,-31709313.0,0.143
-4748.0,-0.01016072,-31151628.0,0.147
-4669.0,-0.00999166,-30633309.0,0.149
-4596.0,-0.009835439999999999,-30154356.0,0.152
-4511.0,-0.009653539999999999,-29596671.0,0.153
-4429.0,-0.00947806,-29058669.0,0.159
-4349.0,-0.00930686,-28533789.0,0.161
-4269.0,-0.009135659999999999,-28008909.0,0.163
-4189.0,-0.008964459999999999,-27484029.0,0.166
-4109.0,-0.008793259999999999,-26959149.0,0.169
-4029.0,-0.008622059999999999,-26434269.0,0.171
-3949.0,-0.00845086,-25909389.0,0.174
-3870.0,-0.008281799999999999,-25391070.0,0.175
-3789.0,-0.00810846,-24859629.0,0.177
-3709.0,-0.00793726,-24334749.0,0.179
-3633.0,-0.0077746199999999994,-23836113.0,0.183
-3549.0,-0.007594859999999999,-23284989.0,0.187
-3475.0,-0.0074364999999999995,-22799475.0,0.189
-3397.0,-0.0072695799999999994,-22287717.0,0.191
-3309.0,-0.00708126,-21710349.0,0.195
-3235.0,-0.006922899999999999,-21224835.0,0.2
-3155.0,-0.006751699999999999,-20699955.0,0.201
-3073.0,-0.00657622,-20161953.0,0.205
-2992.0,-0.00640288,-19630512.0,0.21
-2912.0,-0.00623168,-19105632.0,0.212
-2830.0,-0.006056199999999999,-18567630.0,0.213
-2749.0,-0.005882859999999999,-18036189.0,0.216
-2669.0,-0.0057116599999999995,-17511309.0,0.223
-2592.0,-0.00554688,-17006112.0,0.225
-2509.0,-0.00536926,-16461549.0,0.227
-2429.0,-0.00519806,-15936669.0,0.23
-2354.0,-0.00503756,-15444594.0,0.233
-2275.0,-0.0048684999999999996,-14926275.0,0.237
-2189.0,-0.00468446,-14362029.0,0.24
-2114.0,-0.00452396,-13869954.0,0.241
-2029.0,-0.00434206,-13312269.0,0.245
-1953.0,-0.00417942,-12813633.0,0.247
-1869.0,-0.0039996599999999995,-12262509.0,0.251
-1792.0,-0.0038348799999999997,-11757312.0,0.253
-1710.0,-0.0036593999999999997,-11219310.0,0.255
-1629.0,-0.0034860599999999996,-10687869.0,0.258
-1549.0,-0.0033148599999999998,-10162989.0,0.262
-1469.0,-0.00314366,-9638109.0,0.264
-1389.0,-0.0029724599999999997,-9113229.0,0.269
-1308.0,-0.00279912,-8581788.0,0.27
-1229.0,-0.0026300599999999996,-8063469.0,0.273
-1150.0,-0.0024609999999999996,-7545150.0,0.277
-1070.0,-0.0022898,-7020270.0,0.278
-989.0,-0.0021164599999999997,-6488829.0,0.28
-909.0,-0.0019452599999999999,-5963949.0,0.282
-838.0,-0.00179332,-5498118.0,0.286
-749.0,-0.0016028599999999998,-4914189.0,0.288
-673.0,-0.0014402199999999999,-4415553.0,0.29
-588.0,-0.0012583199999999998,-3857868.0,0.293
-509.0,-0.0010892599999999999,-3339549.0,0.293
-437.0,-0.00093518,-2867157.0,0.293
-349.0,-0.0007468599999999999,-2289789.0,0.294
-269.0,-0.00057566,-1764909.0,0.299
-196.0,-0.00041944,-1285956.0,0.3
-109.0,-0.00023325999999999997,-715149.0,0.301
-29.0,-6.206e-05,-190269.0,0.301
120.0,0.00025679999999999995,787320.0,0.302
148.0,0.00031672,971028.0,0.303
208.0,0.00044511999999999997,1364688.0,0.303
290.0,0.0006205999999999999,1902690.0,0.304
376.0,0.0008046399999999999,2466936.0,0.305
449.0,0.0009608599999999999,2945889.0,0.306
531.0,0.00113634,3483891.0,0.306
610.0,0.0013054,4002210.0,0.307
691.0,0.0014787399999999999,4533651.0,0.308
772.0,0.0016520799999999998,5065092.0,0.308
851.0,0.00182114,5583411.0,0.309
929.0,0.00198806,6095169.0,0.309
1011.0,0.00216354,6633171.0,0.309
1099.0,0.00235186,7210539.0,0.309
1171.0,0.00250594,7682931.0,0.309
1243.0,0.00266002,8155323.0,0.308
1327.0,0.0028397799999999996,8706447.0,0.308
1411.0,0.00301954,9257571.0,0.307
1481.0,0.0031693399999999997,9716841.0,0.306
1571.0,0.00336194,10307331.0,0.305
1644.0,0.0035181599999999998,10786284.0,0.304
1731.0,0.0037043399999999995,11357091.0,0.302
1812.0,0.0038776799999999997,11888532.0,0.299
1897.0,0.004059579999999999,12446217.0,0.297
1965.0,0.0042051,12892365.0,0.295
2045.0,0.0043763,13417245.0,0.294
2127.0,0.00455178,13955247.0,0.292
2210.0,0.0047294,14499810.0,0.29
2288.0,0.00489632,15011568.0,0.289
2369.0,0.005069659999999999,15543009.0,0.287
2451.0,0.00524514,16081011.0,0.284
2539.0,0.005433459999999999,16658379.0,0.28
2611.0,0.005587539999999999,17130771.0,0.279
2691.0,0.005758739999999999,17655651.0,0.276
2771.0,0.00592994,18180531.0,0.273
2852.0,0.006103279999999999,18711972.0,0.269
2927.0,0.006263779999999999,19204047.0,0.267
3011.0,0.006443539999999999,19755171.0,0.264
3091.0,0.006614739999999999,20280051.0,0.257
3172.0,0.006788079999999999,20811492.0,0.256
3251.0,0.00695714,21329811.0,0.253
3326.0,0.00711764,21821886.0,0.249
3411.0,0.007299539999999999,22379571.0,0.243
3491.0,0.007470739999999999,22904451.0,0.241
3565.0,0.0076291,23389965.0,0.237
3651.0,0.00781314,23954211.0,0.234
3725.0,0.0079715,24439725.0,0.23
3811.0,0.00815554,25003971.0,0.226
3883.0,0.00830962,25476363.0,0.223
3971.0,0.008497939999999999,26053731.0,0.215
4047.0,0.00866058,26552367.0,0.214
4128.0,0.008833919999999999,27083808.0,0.21
4211.0,0.00901154,27628371.0,0.207
4283.0,0.00916562,28100763.0,0.203
4371.0,0.00935394,28678131.0,0.195
4449.0,0.009520859999999999,29189889.0,0.192
4531.0,0.00969634,29727891.0,0.188
4606.0,0.009856839999999999,30219966.0,0.185
4691.0,0.010038739999999999,30777651.0,0.181
4771.0,0.010209939999999999,31302531.0,0.175
4851.0,0.010381139999999999,31827411.0,0.171
4931.0,0.010552339999999999,32352291.0,0.166
5007.0,0.010714979999999999,32850927.0,0.161
5090.0,0.010892599999999999,33395490.0,0.159
5171.0,0.01106594,33926931.0,0.155
5251.0,0.01123714,34451811.0,0.152
5331.0,0.01140834,34976691.0,0.147
5411.0,0.01157954,35501571.0,0.144
5484.0,0.01173576,35980524.0,0.142
5567.0,0.01191338,36525087.0,0.138
5649.0,0.01208886,37063089.0,0.135
5728.0,0.012257919999999999,37581408.0,0.13
5810.0,0.012433399999999999,38119410.0,0.127
5891.0,0.012606739999999998,38650851.0,0.124
5971.0,0.01277794,39175731.0,0.118
6049.0,0.012944859999999999,39687489.0,0.117
6131.0,0.01312034,40225491.0,0.114
6201.0,0.01327014,40684761.0,0.111
6291.0,0.013462739999999999,41275251.0,0.108
6370.0,0.0136318,41793570.0,0.105
6451.0,0.013805139999999999,42325011.0,0.101
6531.0,0.013976339999999999,42849891.0,0.0994
6603.0,0.01413042,43322283.0,0.0976
6687.0,0.014310179999999999,43873407.0,0.0953
6765.0,0.0144771,44385165.0,0.0912
6845.0,0.0146483,44910045.0,0.0898
6931.0,0.01483234,45474291.0,0.0881
7005.0,0.0149907,45959805.0,0.0866
7084.0,0.01515976,46478124.0,0.0852
7171.0,0.015345939999999999,47048931.0,0.0833
7251.0,0.015517139999999999,47573811.0,0.0815
7324.0,0.015673359999999997,48052764.0,0.0791
7404.0,0.015844559999999997,48577644.0,0.0778
7491.0,0.016030739999999998,49148451.0,0.0762
7565.0,0.016189099999999998,49633965.0,0.0736
7650.0,0.016371,50191650.0,0.0712
7727.0,0.01653578,50696847.0,0.0701
7807.0,0.01670698,51221727.0,0.069
7890.0,0.0168846,51766290.0,0.0672
7962.0,0.017038679999999997,52238682.0,0.0659
8047.0,0.01722058,52796367.0,0.0651
8130.0,0.0173982,53340930.0,0.0637
8212.0,0.017573679999999998,53878932.0,0.0627
8283.0,0.017725619999999997,54344763.0,0.0613
8368.0,0.01790752,54902448.0,0.0605
8451.0,0.01808514,55447011.0,0.0592
8531.0,0.01825634,55971891.0,0.0577
8611.0,0.01842754,56496771.0,0.0571
8691.0,0.01859874,57021651.0,0.0554
8771.0,0.01876994,57546531.0,0.0552
8851.0,0.01894114,58071411.0,0.0546
8931.0,0.01911234,58596291.0,0.053
9004.0,0.019268559999999997,59075244.0,0.0524
9087.0,0.019446179999999997,59619807.0,0.0519
9169.0,0.01962166,60157809.0,0.0514
9251.0,0.019797139999999998,60695811.0,0.0504
9331.0,0.019968339999999998,61220691.0,0.0498
9411.0,0.020139539999999997,61745571.0,0.0486
9488.0,0.020304319999999997,62250768.0,0.0481
9567.0,0.02047338,62769087.0,0.0477
9649.0,0.020648859999999998,63307089.0,0.0469
9731.0,0.020824339999999997,63845091.0,0.0464
9802.0,0.02097628,64310922.0,0.0454
9888.0,0.02116032,64875168.0,0.0452
9970.0,0.0213358,65413170.0,0.0447
10042.0,0.02148988,65885562.0,0.0439
10131.0,0.02168034,66469491.0,0.0435
10211.0,0.02185154,66994371.0,0.0432
10291.0,0.02202274,67519251.0,0.0425
10371.0,0.02219394,68044131.0,0.0422
10451.0,0.02236514,68569011.0,0.0417
10525.0,0.0225235,69054525.0,0.0413
10610.0,0.022705399999999997,69612210.0,0.041
10691.0,0.022878739999999998,70143651.0,0.0404
10771.0,0.023049939999999998,70668531.0,0.0401
10851.0,0.023221139999999998,71193411.0,0.0397
10931.0,0.023392339999999998,71718291.0,0.0393
11011.0,0.023563539999999997,72243171.0,0.0392
11091.0,0.023734739999999997,72768051.0,0.0391
11165.0,0.023893099999999997,73253565.0,0.039
11247.0,0.02406858,73791567.0,0.0387
11331.0,0.024248339999999997,74342691.0,0.0381
11412.0,0.024421679999999998,74874132.0,0.0378
11491.0,0.02459074,75392451.0,0.0375
11571.0,0.02476194,75917331.0,0.0374
11644.0,0.024918159999999998,76396284.0,0.037
11724.0,0.025089359999999998,76921164.0,0.0367
11811.0,0.02527554,77491971.0,0.0369
11884.0,0.025431759999999998,77970924.0,0.0365
11976.0,0.025628639999999998,78574536.0,0.0362
12046.0,0.02577844,79033806.0,0.0357
12128.0,0.02595392,79571808.0,0.0354
12210.0,0.026129399999999997,80109810.0,0.0351
12291.0,0.026302739999999998,80641251.0,0.0347
12371.0,0.026473939999999998,81166131.0,0.035
12447.0,0.026636579999999997,81664767.0,0.0349
12532.0,0.02681848,82222452.0,0.0348
12604.0,0.02697256,82694844.0,0.0348
12687.0,0.02715018,83239407.0,0.0347
12770.0,0.0273278,83783970.0,0.0345
12849.0,0.027496859999999998,84302289.0,0.0343
12929.0,0.027668059999999998,84827169.0,0.0342
13011.0,0.027843539999999996,85365171.0,0.0341
13101.0,0.028036139999999998,85955661.0,0.0338
13172.0,0.028188079999999997,86421492.0,0.0335
13248.0,0.02835072,86920128.0,0.0334
13330.0,0.028526199999999998,87458130.0,0.0332
13411.0,0.02869954,87989571.0,0.0332
13491.0,0.02887074,88514451.0,0.0331
13577.0,0.02905478,89078697.0,0.033
13657.0,0.02922598,89603577.0,0.0329
13738.0,0.029399319999999996,90135018.0,0.0329
13818.0,0.02957052,90659898.0,0.0327
13897.0,0.029739579999999998,91178217.0,0.0327
13977.0,0.029910779999999998,91703097.0,0.0327
14042.0,0.030049879999999998,92129562.0,0.0327
14125.0,0.030227499999999997,92674125.0,0.033
14207.0,0.030402979999999996,93212127.0,0.0329
14289.0,0.03057846,93750129.0,0.0328
14370.0,0.0307518,94281570.0,0.0326
14451.0,0.030925139999999997,94813011.0,0.0327
14531.0,0.031096339999999997,95337891.0,0.0326
14611.0,0.031267539999999996,95862771.0,0.0324
14685.0,0.0314259,96348285.0,0.0323
14764.0,0.03159496,96866604.0,0.0325
14851.0,0.03178114,97437411.0,0.0323
14931.0,0.031952339999999996,97962291.0,0.0323
